Vgs,Iv_final005_25,Iv_final06_25,Iv_final12_25,Iv_final005_55,Iv_final06_55,Iv_final12_55,Iv_final_005_85,Iv_final06_85,Iv_final12_85
-6.0,1.9004534e-11,2.522824e-11,3.0650316e-11,1.9945842e-11,2.4334416e-11,2.9558224e-11,1.8150485e-11,2.3860464e-11,2.8534917e-11
-5.9,1.868286e-11,2.4732967e-11,2.9770908e-11,1.9757697e-11,2.3937347e-11,2.8866739e-11,1.81463e-11,2.3555444e-11,2.8035796e-11
-5.8,1.8388504e-11,2.4278054e-11,2.895988e-11,1.9596656e-11,2.3577489e-11,2.8231821e-11,1.8165597e-11,2.3282324e-11,2.7578148e-11
-5.7,1.8121732e-11,2.3862873e-11,2.821385e-11,1.9462553e-11,2.3253966e-11,2.765043e-11,1.820801e-11,2.3039827e-11,2.7159086e-11
-5.6,1.7882886e-11,2.348644e-11,2.7529078e-11,1.9355535e-11,2.2965877e-11,2.7119633e-11,1.8272819e-11,2.2826607e-11,2.6775832e-11
-5.5,1.76722e-11,2.3147843e-11,2.6902309e-11,1.9275328e-11,2.2712257e-11,2.6636492e-11,1.8359212e-11,2.2641148e-11,2.6425476e-11
-5.4,1.7489824e-11,2.2846164e-11,2.6330308e-11,1.9221647e-11,2.2491892e-11,2.6197947e-11,1.8466034e-11,2.248172e-11,2.6105031e-11
-5.3,1.7335883e-11,2.2580375e-11,2.5809943e-11,1.9193978e-11,2.230352e-11,2.5801158e-11,1.8591842e-11,2.2346366e-11,2.581136e-11
-5.2,1.7210372e-11,2.2349409e-11,2.533789e-11,1.9191532e-11,2.2145692e-11,2.54431e-11,1.8734913e-11,2.2232764e-11,2.554123e-11
-5.1,1.7113255e-11,2.2151819e-11,2.491115e-11,1.9213544e-11,2.2016809e-11,2.5120662e-11,1.8893102e-11,2.2138494e-11,2.529114e-11
-5.0,1.7044324e-11,2.1986274e-11,2.4526527e-11,1.92587e-11,2.191484e-11,2.4830813e-11,1.906393e-11,2.2060607e-11,2.5057581e-11
-4.9,1.7003315e-11,2.1850929e-11,2.4180793e-11,1.9325676e-11,2.1837546e-11,2.4570082e-11,1.9244538e-11,2.1995933e-11,2.4836647e-11
-4.8,1.6989804e-11,2.1743855e-11,2.3870683e-11,1.9412572e-11,2.1782373e-11,2.4335058e-11,1.9431637e-11,2.1940744e-11,2.4624257e-11
-4.7,1.7003128e-11,2.1662788e-11,2.3592716e-11,1.9517379e-11,2.1746337e-11,2.412203e-11,1.9621544e-11,2.189108e-11,2.4416419e-11
-4.6,1.7042565e-11,2.1604973e-11,2.3343346e-11,1.9637623e-11,2.172591e-11,2.3927046e-11,1.9810176e-11,2.1842533e-11,2.420874e-11
-4.5,1.710698e-11,2.1567336e-11,2.3118736e-11,1.977037e-11,2.1717133e-11,2.3745941e-11,1.9993113e-11,2.1790507e-11,2.3997134e-11
-4.4,1.7195224e-11,2.1546319e-11,2.2914948e-11,1.9912407e-11,2.1715749e-11,2.3574538e-11,2.016578e-11,2.1730012e-11,2.3777456e-11
-4.3,1.730553e-11,2.1537756e-11,2.2727823e-11,2.006009e-11,2.1716703e-11,2.3408228e-11,2.032324e-11,2.1656272e-11,2.3545929e-11
-4.2,1.7436178e-11,2.1537189e-11,2.2552972e-11,2.0209223e-11,2.1714843e-11,2.3242634e-11,2.0460396e-11,2.1564589e-11,2.3299303e-11
-4.1,1.758483e-11,2.1539506e-11,2.2385952e-11,2.0355441e-11,2.1704784e-11,2.3073344e-11,2.0572532e-11,2.145072e-11,2.3035173e-11
-4.0,1.7748853e-11,2.1539317e-11,2.222222e-11,2.0494032e-11,2.1680728e-11,2.2896187e-11,2.0654643e-11,2.131123e-11,2.2752142e-11
-3.9,1.7925189e-11,2.1530899e-11,2.2057361e-11,2.061993e-11,2.1637542e-11,2.270757e-11,2.0702549e-11,2.1143793e-11,2.2450146e-11
-3.8,1.8110433e-11,2.1508689e-11,2.1887282e-11,2.0727978e-11,2.1570225e-11,2.250454e-11,2.0712234e-11,2.0947752e-11,2.2131057e-11
-3.7,1.8300847e-11,2.1467118e-11,2.1708359e-11,2.0812995e-11,2.1474851e-11,2.2285406e-11,2.0680785e-11,2.0724245e-11,2.1798308e-11
-3.6,1.8492166e-11,2.1401318e-11,2.1517853e-11,2.0869974e-11,2.1348841e-11,2.2049758e-11,2.060599e-11,2.0476848e-11,2.145788e-11
-3.5,1.868003e-11,2.130758e-11,2.131399e-11,2.0894323e-11,2.1191392e-11,2.1798978e-11,2.0486876e-11,2.021153e-11,2.1118133e-11
-3.4,1.885986e-11,2.1183435e-11,2.1096767e-11,2.0881847e-11,2.1004039e-11,2.1536668e-11,2.0323864e-11,1.9937128e-11,2.0789653e-11
-3.3,1.9027167e-11,2.1028776e-11,2.0867683e-11,2.0829272e-11,2.0790886e-11,2.126878e-11,2.0118851e-11,1.9665283e-11,2.0485752e-11
-3.2,1.917763e-11,2.0845698e-11,2.0630754e-11,2.0734487e-11,2.0559209e-11,2.1003855e-11,1.9875449e-11,1.9410355e-11,2.022223e-11
-3.1,1.9307396e-11,2.0639409e-11,2.0392441e-11,2.0596623e-11,2.0319224e-11,2.0753163e-11,1.9599022e-11,1.9189173e-11,2.001701e-11
-3.0,1.9413552e-11,2.0418207e-11,2.0161928e-11,2.0416816e-11,2.0084465e-11,2.0530968e-11,1.9296969e-11,1.9020984e-11,1.98899e-11
-2.9,1.9494505e-11,2.0193874e-11,1.9951448e-11,2.0197866e-11,1.9871434e-11,2.0353922e-11,1.8978387e-11,1.8926489e-11,1.9862011e-11
-2.8,1.9550278e-11,1.9981482e-11,1.9776188e-11,1.9945184e-11,1.9699254e-11,2.0241466e-11,1.8654574e-11,1.8926945e-11,1.9954385e-11
-2.7,1.9583278e-11,1.9799305e-11,1.9654448e-11,1.9666364e-11,1.9589127e-11,2.021477e-11,1.8338622e-11,1.9042214e-11,2.0185008e-11
-2.6,1.9598507e-11,1.9668177e-11,1.9607158e-11,1.9371947e-11,1.9563334e-11,2.0295767e-11,1.8045211e-11,1.9286463e-11,2.0563183e-11
-2.5,1.9604101e-11,1.9610646e-11,1.9657297e-11,1.9074731e-11,1.964323e-11,2.0504924e-11,1.7790137e-11,1.966062e-11,2.10794e-11
-2.4,1.9611033e-11,1.964927e-11,1.9828457e-11,1.8789751e-11,1.984514e-11,2.0856093e-11,1.7589232e-11,2.0139139e-11,2.1688252e-11
-2.3,1.9632837e-11,1.9802566e-11,2.0141219e-11,1.8533062e-11,2.017331e-11,2.1347294e-11,1.7456097e-11,2.0650516e-11,2.2286728e-11
-2.2,1.968317e-11,2.0078689e-11,2.0605672e-11,1.8319946e-11,2.0606215e-11,2.1943926e-11,1.739835e-11,2.1059876e-11,2.2702135e-11
-2.1,1.9772019e-11,2.0461969e-11,2.1208058e-11,1.8160532e-11,2.1075882e-11,2.2554557e-11,1.7410734e-11,2.1179994e-11,2.2728073e-11
-2.0,1.9897896e-11,2.0892213e-11,2.1886513e-11,1.8053852e-11,2.1445068e-11,2.300666e-11,1.7465338e-11,2.086278e-11,2.2261783e-11
-1.9,2.0035832e-11,2.1239703e-11,2.2502316e-11,1.797742e-11,2.1506847e-11,2.3058453e-11,1.750089e-11,2.0201193e-11,2.1541493e-11
-1.8,2.012327e-11,2.1299674e-11,2.2829313e-11,1.7876211e-11,2.1065103e-11,2.2510915e-11,1.7422399e-11,1.9761992e-11,2.1357329e-11
-1.7,2.005573e-11,2.0865759e-11,2.2628871e-11,1.765932e-11,2.0144181e-11,2.1457081e-11,1.7135742e-11,2.0743232e-11,2.3206628e-11
-1.6,1.972527e-11,1.9946279e-11,2.1883823e-11,1.72303e-11,1.9258234e-11,2.0549866e-11,1.6644346e-11,2.5379041e-11,2.9961623e-11
-1.5,1.914149e-11,1.9060998e-11,2.11327e-11,1.6582473e-11,1.957051e-11,2.112407e-11,1.6199346e-11,3.8852022e-11,4.8705415e-11
-1.4,1.863578e-11,1.9437141e-11,2.1703974e-11,1.5956236e-11,2.319216e-11,2.556216e-11,1.6437962e-11,7.598598e-11,1.0009469e-10
-1.3,1.9065435e-11,2.3371607e-11,2.610784e-11,1.599005e-11,3.494051e-11,3.9422323e-11,1.855554e-11,1.8213608e-10,2.4674487e-10
-1.2,2.2102063e-11,3.6316533e-11,4.0208215e-11,1.7896596e-11,6.9098706e-11,7.927836e-11,2.4968819e-11,4.921599e-10,6.701645e-10
-1.1,3.134967e-11,7.507032e-11,8.167414e-11,2.4157546e-11,1.7197829e-10,1.9833855e-10,4.1637707e-11,1.368515e-09,1.8407977e-09
-1.0,5.6282187e-11,1.9567115e-10,2.0832977e-10,4.1073582e-11,4.9010757e-10,5.6227834e-10,8.477996e-11,3.6450596e-09,4.796015e-09
-0.9,1.2364713e-10,5.7745797e-10,6.0255523e-10,8.638523e-11,1.4395507e-09,1.6331427e-09,1.9790959e-10,8.922394e-09,1.1441127e-08
-0.8,3.0504876e-10,1.7235409e-09,1.7717039e-09,2.0898315e-10,4.0147867e-09,4.495556e-09,4.871194e-10,1.9791111e-08,2.4726912e-08
-0.7,7.6588885e-10,4.7927093e-09,4.8807447e-09,5.2931226e-10,1.015663e-08,1.1226967e-08,1.1719336e-09,3.994245e-08,4.867708e-08
-0.6,1.8115206e-09,1.1923575e-08,1.2073863e-08,1.2934017e-09,2.2994035e-08,2.5099709e-08,2.6176843e-09,7.429968e-08,8.843172e-08
-0.5,3.86686e-09,2.6355702e-08,2.6564294e-08,2.894424e-09,4.6910944e-08,5.0551762e-08,5.2943783e-09,1.2932455e-07,1.5047537e-07
-0.4,7.354131e-09,5.2399248e-08,5.2516747e-08,5.8028373e-09,8.7641716e-08,9.3152686e-08,9.650303e-09,2.135081e-07,2.4307312e-07
-0.3,1.2535707e-08,9.552632e-08,9.5019715e-08,1.0415615e-08,1.5258797e-07,1.5980606e-07,1.59674e-08,3.3788285e-07,3.7676728e-07
-0.2,1.942882e-08,1.627154e-07,1.6035779e-07,1.6918731e-08,2.5131118e-07,2.5920414e-07,2.4282638e-08,5.1633793e-07,5.6477614e-07
-0.1,2.7820963e-08,2.6287353e-07,2.5649172e-07,2.524054e-08,3.9593016e-07,4.0232945e-07,3.4398052e-08,7.6545086e-07,8.231034e-07
0.0,3.7340225e-08,4.070388e-07,3.9351877e-07,3.5093375e-08,6.011253e-07,6.027789e-07,4.5948216e-08,1.1036428e-06,1.1702375e-06
0.1,4.7532275e-08,6.0805075e-07,5.83896e-07,4.6053724e-08,8.8341756e-07,8.767174e-07,5.848006e-08,1.5494819e-06,1.6263324e-06
0.2,5.792538e-08,8.795115e-07,8.422921e-07,5.7643682e-08,1.2596303e-06,1.2423365e-06,7.15239e-08,2.1192461e-06,2.2118888e-06
0.3,6.808249e-08,1.233999e-06,1.1849525e-06,6.9396286e-08,1.744487e-06,1.7187806e-06,8.464454e-08,2.8240472e-06,2.9459698e-06
0.4,7.764199e-08,1.6808159e-06,1.6286214e-06,8.0903725e-08,2.347824e-06,2.3245798e-06,9.747431e-08,3.6671902e-06,3.8443222e-06
0.5,8.634399e-08,2.2237377e-06,2.1890407e-06,9.184583e-08,3.0719616e-06,3.0757585e-06,1.0973019e-07,4.642408e-06,4.9174832e-06
0.6,9.403747e-08,2.8595323e-06,2.8792638e-06,1.02002254e-07,3.9101387e-06,3.984049e-06,1.2121748e-07,5.7335087e-06,6.1694304e-06
0.7,1.0067189e-07,3.5776663e-06,3.7080426e-06,1.1124802e-07,4.8464726e-06,5.055226e-06,1.3182144e-07,6.9158286e-06,7.5968464e-06
0.8,1.06276396e-07,4.3614727e-06,4.67859e-06,1.1953959e-07,5.857639e-06,6.288282e-06,1.4149423e-07,8.158953e-06,9.1892525e-06
0.9,1.1093431e-07,5.1903894e-06,5.787884e-06,1.2689488e-07,6.9158286e-06,7.675152e-06,1.5023997e-07,9.430154e-06,1.0929708e-05
1.0,1.1475926e-07,6.042692e-06,7.02672e-06,1.3337147e-07,7.992292e-06,9.201409e-06,1.5809717e-07,1.0697977e-05,1.2796352e-05
1.1,1.1787459e-07,6.8979393e-06,8.38034e-06,1.3905071e-07,9.060454e-06,1.0847301e-05,1.651267e-07,1.1934983e-05,1.4763926e-05
1.2,1.2040225e-07,7.738727e-06,9.829789e-06,1.4402289e-07,1.0098263e-05,1.2589541e-05,1.714022e-07,1.3119465e-05,1.6805594e-05
1.3,1.2245256e-07,8.551656e-06,1.135317e-05,1.4837785e-07,1.1089217e-05,1.4402811e-05,1.769993e-07,1.4236345e-05,1.8894596e-05
1.4,1.2412117e-07,9.327335e-06,1.2927387e-05,1.5220029e-07,1.2022681e-05,1.6261574e-05,1.8199336e-07,1.5276566e-05,2.1005491e-05
1.5,1.2548941e-07,1.005993e-05,1.4529495e-05,1.5556664e-07,1.2892957e-05,1.8141262e-05,1.8645605e-07,1.6236472e-05,2.3114979e-05
1.6,1.2662431e-07,1.07466685e-05,1.6137921e-05,1.585439e-07,1.3698559e-05,2.0019428e-05,1.9045183e-07,1.7116638e-05,2.5202851e-05
1.7,1.275797e-07,1.1386814e-05,1.7733251e-05,1.6119027e-07,1.4440782e-05,2.1876327e-05,1.9404027e-07,1.7920427e-05,2.7251952e-05
1.8,1.2839897e-07,1.1981198e-05,1.9298854e-05,1.6355455e-07,1.5122949e-05,2.369544e-05,1.9727328e-07,1.8653058e-05,2.92484e-05
1.9,1.2911656e-07,1.2531619e-05,2.0821017e-05,1.6567914e-07,1.5749285e-05,2.5463221e-05,2.0019715e-07,1.9320798e-05,3.1181327e-05
2.0,1.297595e-07,1.30403205e-05,2.2289078e-05,1.6759951e-07,1.6324633e-05,2.7169435e-05,2.0285162e-07,1.9930081e-05,3.304269e-05
2.1,1.3034966e-07,1.35099535e-05,2.3694998e-05,1.6934547e-07,1.6853674e-05,2.8806455e-05,2.0527247e-07,2.0487305e-05,3.482695e-05
2.2,1.3090255e-07,1.3943154e-05,2.5033547e-05,1.7094307e-07,1.7340928e-05,3.0369198e-05,2.0748904e-07,2.0998366e-05,3.6530688e-05
2.3,1.3143224e-07,1.4342592e-05,2.6301414e-05,1.7241275e-07,1.7790644e-05,3.1854794e-05,2.095279e-07,2.1468628e-05,3.81522e-05
2.4,1.3194756e-07,1.4710804e-05,2.749727e-05,1.7377332e-07,1.820651e-05,3.3262037e-05,2.1141264e-07,2.1902764e-05,3.9691207e-05
2.5,1.3245588e-07,1.5050264e-05,2.862111e-05,1.7504003e-07,1.8591882e-05,3.459117e-05,2.1316214e-07,2.230499e-05,4.1148647e-05
2.6,1.3296251e-07,1.536321e-05,2.967418e-05,1.7622597e-07,1.8949693e-05,3.5843503e-05,2.1479379e-07,2.267879e-05,4.2526182e-05
2.7,1.3347137e-07,1.565182e-05,3.0658663e-05,1.7734205e-07,1.9282545e-05,3.7021196e-05,2.1632174e-07,2.3027258e-05,4.382628e-05
2.8,1.3398468e-07,1.5918054e-05,3.1577256e-05,1.7839761e-07,1.9592719e-05,3.8127077e-05,2.1775894e-07,2.3352959e-05,4.5051813e-05
2.9,1.3450455e-07,1.616381e-05,3.2433047e-05,1.7940054e-07,1.9882216e-05,3.916442e-05,2.191164e-07,2.3658162e-05,4.6205972e-05
3.0,1.3503177e-07,1.6390815e-05,3.3229473e-05,1.8035763e-07,2.0152876e-05,4.0136496e-05,2.2040366e-07,2.394481e-05,4.7292033e-05
3.1,1.3556566e-07,1.6600636e-05,3.397007e-05,1.8127423e-07,2.0406216e-05,4.1047075e-05,2.2162864e-07,2.4214507e-05,4.8313468e-05
3.2,1.361072e-07,1.6794747e-05,3.4658457e-05,1.8215509e-07,2.0643738e-05,4.189966e-05,2.2279804e-07,2.446875e-05,4.9273847e-05
3.3,1.366551e-07,1.6974458e-05,3.5298108e-05,1.8300466e-07,2.086672e-05,4.2697935e-05,2.2391804e-07,2.4708728e-05,5.017668e-05
3.4,1.3720897e-07,1.7141087e-05,3.5892535e-05,1.838263e-07,2.107623e-05,4.344544e-05,2.249945e-07,2.4935587e-05,5.1025138e-05
3.5,1.3776736e-07,1.729573e-05,3.6445035e-05,1.8462283e-07,2.1273474e-05,4.4145407e-05,2.2603122e-07,2.5150302e-05,5.182275e-05
3.6,1.3832954e-07,1.7439412e-05,3.6958652e-05,1.8539616e-07,2.1459295e-05,4.4801378e-05,2.2703207e-07,2.5353753e-05,5.2572534e-05
3.7,1.3889446e-07,1.7573171e-05,3.743645e-05,1.8614922e-07,2.1634622e-05,4.541645e-05,2.280008e-07,2.5546728e-05,5.327745e-05
3.8,1.3946062e-07,1.769783e-05,3.7881222e-05,1.8688317e-07,2.1800246e-05,4.5993187e-05,2.289405e-07,2.5729982e-05,5.3940443e-05
3.9,1.400268e-07,1.7814218e-05,3.8295566e-05,1.8759964e-07,2.1956963e-05,4.6534715e-05,2.2985301e-07,2.5904112e-05,5.456428e-05
4.0,1.4059202e-07,1.7923103e-05,3.868185e-05,1.8829961e-07,2.210534e-05,4.7043504e-05,2.3074129e-07,2.6069743e-05,5.5151475e-05
4.1,1.4115565e-07,1.8025112e-05,3.9042574e-05,1.8898434e-07,2.2246071e-05,4.7521997e-05,2.3160605e-07,2.6227417e-05,5.570448e-05
4.2,1.4171532e-07,1.8120936e-05,3.9379713e-05,1.8965493e-07,2.237976e-05,4.797237e-05,2.3245006e-07,2.6377733e-05,5.622555e-05
4.3,1.4227157e-07,1.8211049e-05,3.9694958e-05,1.9031178e-07,2.2506962e-05,4.8396876e-05,2.332741e-07,2.6521106e-05,5.6716923e-05
4.4,1.4282249e-07,1.8296067e-05,3.9990457e-05,1.9095562e-07,2.2628077e-05,4.8797374e-05,2.3407998e-07,2.6657995e-05,5.7180372e-05
4.5,1.4336705e-07,1.8376413e-05,4.026768e-05,1.9158689e-07,2.27436e-05,4.9175644e-05,2.3486827e-07,2.678877e-05,5.7617992e-05
4.6,1.4390514e-07,1.8452496e-05,4.052827e-05,1.9220613e-07,2.2853992e-05,4.95334e-05,2.3564006e-07,2.6913918e-05,5.803156e-05
4.7,1.4443557e-07,1.8524803e-05,4.077366e-05,1.928136e-07,2.295965e-05,4.9872233e-05,2.3639649e-07,2.7033775e-05,5.8422753e-05
4.8,1.4495794e-07,1.8593597e-05,4.1004958e-05,1.9341024e-07,2.3060884e-05,5.0193597e-05,2.3713712e-07,2.7148591e-05,5.8792884e-05
4.9,1.4547085e-07,1.8659286e-05,4.1223397e-05,1.939951e-07,2.3158114e-05,5.0498784e-05,2.3786386e-07,2.7258835e-05,5.9143673e-05
5.0,1.4597485e-07,1.8722123e-05,4.1430172e-05,1.9456999e-07,2.3251541e-05,5.078904e-05,2.385774e-07,2.736478e-05,5.9476304e-05
5.1,1.4646868e-07,1.8782428e-05,4.1626372e-05,1.9513394e-07,2.3341552e-05,5.1065657e-05,2.392765e-07,2.7466644e-05,5.979209e-05
5.2,1.4695257e-07,1.8840405e-05,4.1812575e-05,1.9568705e-07,2.3428387e-05,5.1329465e-05,2.3996319e-07,2.7564738e-05,6.0092403e-05
5.3,1.474256e-07,1.8896319e-05,4.1990017e-05,1.9623074e-07,2.3512215e-05,5.1581606e-05,2.4063755e-07,2.7659356e-05,6.0378043e-05
5.4,1.4788813e-07,1.8950359e-05,4.2159325e-05,1.9676385e-07,2.359339e-05,5.182292e-05,2.4129872e-07,2.7750675e-05,6.065019e-05
5.5,1.4833908e-07,1.9002782e-05,4.2321233e-05,1.9728758e-07,2.3672037e-05,5.2054333e-05,2.419484e-07,2.7838993e-05,6.0909715e-05
5.6,1.4877867e-07,1.9053676e-05,4.247639e-05,1.9780097e-07,2.3748391e-05,5.2276504e-05,2.4258628e-07,2.7924403e-05,6.115779e-05
5.7,1.4920711e-07,1.91033e-05,4.262547e-05,1.9830503e-07,2.3822637e-05,5.2490344e-05,2.4321247e-07,2.8007214e-05,6.139495e-05
5.8,1.4962363e-07,1.9151665e-05,4.2769017e-05,1.9879967e-07,2.3894938e-05,5.2696323e-05,2.4382743e-07,2.8087527e-05,6.162227e-05
5.9,1.5002897e-07,1.9199037e-05,4.2907486e-05,1.9928461e-07,2.3965458e-05,5.2895324e-05,2.4443108e-07,2.8165534e-05,6.184038e-05
6.0,1.5042218e-07,1.9245446e-05,4.304154e-05,1.9976042e-07,2.4034287e-05,5.30875e-05,2.450233e-07,2.8241495e-05,6.2049796e-05
6.1,1.5080386e-07,1.9291057e-05,4.3171407e-05,2.0022661e-07,2.4101566e-05,5.3273823e-05,2.456048e-07,2.8315484e-05,6.22513e-05
6.2,1.5117388e-07,1.9335928e-05,4.3297678e-05,2.0068373e-07,2.4167522e-05,5.345446e-05,2.4617555e-07,2.8387578e-05,6.244558e-05
6.3,1.5153215e-07,1.93802e-05,4.342055e-05,2.011322e-07,2.4232115e-05,5.3630174e-05,2.4673514e-07,2.8458013e-05,6.263311e-05
6.4,1.5187895e-07,1.9423915e-05,4.354052e-05,2.0157147e-07,2.4295572e-05,5.3801094e-05,2.4728405e-07,2.8526867e-05,6.281443e-05
6.5,1.5221433e-07,1.9467148e-05,4.3657896e-05,2.0200194e-07,2.435786e-05,5.396781e-05,2.4782196e-07,2.8594255e-05,6.298993e-05
6.6,1.5253873e-07,1.9509987e-05,4.37728e-05,2.0242356e-07,2.441918e-05,5.4130473e-05,2.4835012e-07,2.8660324e-05,6.316029e-05
6.7,1.5285191e-07,1.9552468e-05,4.38857e-05,2.0283649e-07,2.4479526e-05,5.428981e-05,2.4886683e-07,2.8725097e-05,6.332569e-05
6.8,1.5315395e-07,1.9594656e-05,4.399681e-05,2.0324065e-07,2.4539051e-05,5.444573e-05,2.4937313e-07,2.8788749e-05,6.348679e-05
6.9,1.5344548e-07,1.9636609e-05,4.410631e-05,2.0363669e-07,2.4597775e-05,5.459862e-05,2.4986892e-07,2.8851277e-05,6.364396e-05
7.0,1.5372642e-07,1.9678373e-05,4.4214386e-05,2.0402408e-07,2.4655721e-05,5.4748754e-05,2.5035442e-07,2.8912858e-05,6.379704e-05
7.1,1.5399688e-07,1.9719964e-05,4.4321314e-05,2.0440278e-07,2.4712934e-05,5.4896525e-05,2.5082986e-07,2.8973524e-05,6.39469e-05
7.2,1.5425698e-07,1.976145e-05,4.4427186e-05,2.0477387e-07,2.47696e-05,5.504198e-05,2.5129378e-07,2.9033265e-05,6.40936e-05
7.3,1.545075e-07,1.9802805e-05,4.453233e-05,2.0513616e-07,2.4825633e-05,5.5185395e-05,2.5174836e-07,2.9092202e-05,6.4237465e-05
7.4,1.5474859e-07,1.984405e-05,4.463665e-05,2.0549076e-07,2.4881054e-05,5.5326873e-05,2.521921e-07,2.9150395e-05,6.437896e-05
7.5,1.5497983e-07,1.9885294e-05,4.4740424e-05,2.0583693e-07,2.4935998e-05,5.5466768e-05,2.5262554e-07,2.9207966e-05,6.451779e-05
7.6,1.5520189e-07,1.9926514e-05,4.484375e-05,2.0617553e-07,2.4990404e-05,5.560506e-05,2.5304834e-07,2.9264847e-05,6.4654654e-05
7.7,1.5541504e-07,1.9967621e-05,4.4946722e-05,2.0650607e-07,2.5044377e-05,5.5741988e-05,2.53461e-07,2.93211e-05,6.478975e-05
7.8,1.5561994e-07,2.0008838e-05,4.504954e-05,2.0682897e-07,2.509789e-05,5.5877594e-05,2.5386342e-07,2.9376783e-05,6.492284e-05
7.9,1.5581587e-07,2.0050005e-05,4.5152192e-05,2.0714418e-07,2.5150937e-05,5.601211e-05,2.5425535e-07,2.9432022e-05,6.505448e-05
8.0,1.5600384e-07,2.0091169e-05,4.525473e-05,2.0745168e-07,2.5203542e-05,5.6145538e-05,2.5463697e-07,2.9486653e-05,6.518476e-05
8.1,1.5618379e-07,2.0132331e-05,4.53573e-05,2.0775164e-07,2.5255787e-05,5.627811e-05,2.5500853e-07,2.95408e-05,6.5313856e-05
8.2,1.5635605e-07,2.017351e-05,4.5460005e-05,2.0804427e-07,2.5307612e-05,5.6409695e-05,2.553694e-07,2.9594497e-05,6.544162e-05
8.3,1.5652094e-07,2.021475e-05,4.5562843e-05,2.0832954e-07,2.5359097e-05,5.654065e-05,2.5571984e-07,2.9647768e-05,6.5568354e-05
8.4,1.5667912e-07,2.025603e-05,4.5665813e-05,2.0860742e-07,2.5410185e-05,5.667086e-05,2.5606064e-07,2.9700648e-05,6.5694316e-05
8.5,1.568299e-07,2.0297239e-05,4.5769117e-05,2.0887809e-07,2.5460902e-05,5.6800367e-05,2.5639147e-07,2.9753099e-05,6.5819506e-05
8.6,1.5697425e-07,2.0338553e-05,4.5872705e-05,2.0914176e-07,2.5511243e-05,5.692936e-05,2.567109e-07,2.9805118e-05,6.594406e-05
8.7,1.571122e-07,2.0379839e-05,4.5976576e-05,2.093982e-07,2.5561234e-05,5.7057703e-05,2.5702087e-07,2.985677e-05,6.6067776e-05
8.8,1.5724439e-07,2.0421143e-05,4.6080833e-05,2.096478e-07,2.5610816e-05,5.718552e-05,2.5732072e-07,2.9908018e-05,6.619099e-05
8.9,1.5737012e-07,2.0462418e-05,4.6185534e-05,2.0989077e-07,2.5660016e-05,5.7312995e-05,2.576099e-07,2.9958928e-05,6.631363e-05
9.0,1.5749077e-07,2.0503709e-05,4.629052e-05,2.101262e-07,2.570886e-05,5.7439996e-05,2.5788924e-07,3.0009396e-05,6.643599e-05
9.1,1.5760564e-07,2.054497e-05,4.6396e-05,2.1035588e-07,2.5757286e-05,5.756671e-05,2.5815808e-07,3.0059586e-05,6.655785e-05
9.2,1.5771573e-07,2.0586223e-05,4.6501875e-05,2.1057795e-07,2.580538e-05,5.7692945e-05,2.58417e-07,3.0109299e-05,6.667934e-05
9.3,1.5782071e-07,2.0627447e-05,4.6608246e-05,2.1079401e-07,2.5853024e-05,5.781882e-05,2.5866595e-07,3.0158662e-05,6.6800545e-05
9.4,1.5792106e-07,2.0668618e-05,4.6715013e-05,2.1100404e-07,2.59003e-05,5.79444e-05,2.589052e-07,3.020761e-05,6.692138e-05
